NdRuO Nd2Ru2O7 Seshadri Cu311 RT 2hr filter-NdRuO004 NdRuO003 NdRuO002 NdRuO001 
Instrument parameter file:NdRuO001.inst                                         
BANK  1     3296     660 CONST     300.00      5.00 0 0 ESD                     
   1461.     78.   1377.     75.   1348.     75.   1286.     73.   1296.     73.
   1374.     75.   1286.     73.   1225.     71.   1368.     75.   1287.     73.
   1264.     72.   1147.     68.   1199.     70.   1207.     70.   1273.     72.
   1461.     78.   1205.     70.   1232.     71.   1130.     68.   1074.     66.
   1020.     64.   1167.     69.   1238.     71.    959.     61.   1074.     66.
   1193.     70.   1051.     65.   1007.     63.   1134.     68.   1041.     64.
   1015.     64.   1062.     65.   1128.     68.   1004.     63.   1139.     68.
   1021.     64.   1008.     63.    946.     61.    945.     61.   1063.     65.
    988.     63.   1016.     64.    933.     61.    911.     60.    931.     60.
    900.     59.    881.     59.   1034.     64.    975.     62.   1046.     65.
    880.     58.    968.     62.    937.     61.    913.     60.    993.     63.
    935.     61.    861.     58.   1063.     65.    816.     56.    987.     63.
    949.     61.    875.     58.   1043.     65.    859.     58.    854.     57.
    841.     57.    863.     58.    872.     58.    822.     56.    883.     59.
   1051.     65.    968.     62.    783.     55.    852.     57.    943.     61.
    803.     55.    889.     59.    816.     56.    928.     60.    959.     61.
    759.     54.    879.     58.    831.     57.    867.     58.    811.     56.
    760.     54.    832.     57.    933.     61.    744.     53.    843.     57.
    812.     56.    934.     61.    809.     56.    709.     51.    814.     56.
    796.     55.    701.     51.    900.     59.    815.     56.    809.     56.
    819.     38.    799.     38.    839.     39.    757.     37.    716.     35.
    788.     38.    796.     38.    826.     39.    748.     36.    775.     37.
    752.     36.    756.     37.    789.     38.    812.     38.    793.     38.
    802.     38.    745.     36.    797.     38.    751.     36.    798.     38.
    810.     38.    811.     38.    750.     36.    786.     38.    745.     36.
    755.     37.    800.     38.    773.     37.    768.     37.    774.     37.
    769.     37.    769.     37.    733.     36.    833.     39.    775.     37.
    695.     35.    709.     35.    790.     38.    748.     36.    776.     37.
    745.     36.    702.     35.    739.     36.    743.     36.    765.     37.
    771.     37.    716.     35.    748.     36.    737.     36.    684.     34.
    755.     37.    693.     35.    757.     37.    671.     34.    759.     37.
    738.     36.    755.     37.    724.     36.    793.     38.    684.     35.
    759.     37.    740.     36.    763.     37.    786.     37.    706.     35.
    723.     36.    662.     34.    770.     37.    741.     36.    763.     37.
    767.     37.    752.     37.    690.     35.    661.     34.    682.     34.
    760.     37.    702.     35.    827.     39.    759.     37.    772.     37.
    654.     33.    726.     36.    743.     36.    700.     35.    702.     35.
    614.     32.    748.     36.    690.     35.    732.     36.    746.     36.
    686.     34.    705.     35.    680.     34.    705.     35.    641.     33.
    738.     36.    672.     47.    708.     48.    701.     48.    720.     49.
    760.     37.    717.     36.    744.     37.    764.     37.    749.     37.
    720.     36.    695.     35.    686.     35.    709.     35.    715.     36.
    717.     36.    700.     35.    741.     36.    671.     34.    717.     36.
    735.     36.    689.     35.    654.     34.    677.     34.    713.     36.
    727.     36.    716.     36.    723.     36.    714.     36.    733.     36.
    730.     36.    737.     36.    725.     36.    732.     36.    757.     37.
    806.     38.    796.     38.    878.     40.    944.     42.   1069.     45.
   1141.     47.   1093.     46.    960.     43.    894.     41.    798.     38.
    712.     36.    695.     35.    711.     36.    662.     34.    637.     33.
    649.     34.    676.     34.    665.     34.    666.     34.    639.     33.
    660.     34.    631.     33.    638.     33.    665.     34.    681.     35.
    657.     34.    661.     34.    663.     34.    676.     34.    687.     35.
    688.     35.    673.     34.    621.     33.    652.     34.    662.     34.
    638.     33.    643.     33.    695.     35.    657.     34.    643.     33.
    729.     36.    651.     34.    646.     33.    621.     33.    591.     32.
    579.     31.    581.     31.    616.     32.    635.     33.    611.     32.
    603.     32.    622.     33.    651.     34.    628.     33.    632.     33.
    647.     33.    667.     34.    665.     34.    687.     35.    653.     34.
    621.     32.    568.     31.    616.     32.    638.     33.    644.     33.
    659.     34.    592.     47.    657.     34.    656.     34.    592.     31.
    610.     32.    646.     33.    613.     32.    632.     33.    656.     34.
    639.     33.    681.     34.    645.     33.    659.     34.    701.     35.
    791.     38.    798.     38.    738.     36.    747.     36.    697.     35.
    681.     34.    656.     34.    584.     31.    592.     32.    617.     32.
    618.     32.    628.     33.    581.     31.    646.     33.    578.     31.
    585.     31.    597.     32.    603.     32.    608.     32.    568.     31.
    602.     32.    597.     32.    598.     32.    659.     34.    587.     31.
    620.     32.    593.     32.    602.     32.    588.     31.    550.     30.
    587.     31.    641.     33.    588.     31.    568.     31.    570.     31.
    624.     33.    577.     31.    599.     32.    591.     31.    552.     30.
    527.     29.    559.     30.    554.     30.    574.     31.    612.     32.
    638.     33.    576.     31.    628.     33.    676.     34.    656.     34.
    663.     34.    612.     32.    634.     33.    590.     31.    584.     31.
    534.     30.    555.     30.    545.     30.    513.     29.    505.     29.
    586.     31.    593.     32.    616.     32.    574.     31.    616.     32.
    585.     31.    548.     30.    588.     31.    583.     31.    556.     30.
    583.     31.    619.     32.    643.     33.    661.     34.    678.     34.
    714.     35.    612.     32.    641.     33.    631.     33.    614.     32.
    596.     32.    607.     32.    604.     32.    502.     28.    549.     30.
    604.     32.    540.     28.    585.     30.    567.     29.    578.     30.
    628.     31.    612.     31.    544.     29.    600.     30.    559.     29.
    572.     30.    603.     31.    604.     31.    566.     29.    565.     29.
    590.     30.    586.     30.    575.     30.    569.     29.    546.     29.
    593.     30.    561.     29.    589.     30.    596.     30.    586.     30.
    603.     30.    689.     33.    761.     35.    909.     39.   1148.     44.
   1200.     45.   1187.     45.   1125.     44.    954.     40.    828.     37.
    685.     33.    558.     29.    571.     29.    576.     30.    601.     30.
    559.     29.    596.     30.    567.     29.    560.     29.    522.     28.
    540.     29.    577.     30.    552.     29.    525.     28.    614.     31.
    588.     30.    552.     29.    574.     30.    558.     29.    567.     29.
    591.     30.    582.     30.    557.     29.    554.     29.    548.     29.
    527.     28.    580.     30.    582.     30.    567.     29.    588.     30.
    575.     30.    535.     28.    546.     29.    576.     30.    544.     29.
    546.     29.    583.     30.    612.     31.    572.     30.    576.     30.
    580.     30.    575.     30.    553.     29.    562.     29.    592.     30.
    553.     29.    555.     29.    580.     30.    611.     31.    569.     29.
    578.     30.    546.     29.    573.     30.    581.     30.    545.     29.
    579.     30.    585.     30.    564.     29.    538.     28.    560.     29.
    556.     29.    557.     29.    539.     28.    502.     27.    521.     28.
    567.     29.    554.     29.    548.     29.    582.     30.    611.     31.
    609.     31.    627.     31.    564.     29.    598.     31.    607.     31.
    626.     31.    617.     31.    734.     34.    902.     39.   1056.     42.
   1246.     46.   1353.     48.   1296.     47.   1189.     45.   1010.     41.
    797.     36.    668.     33.    609.     31.    616.     31.    634.     32.
    565.     29.    539.     29.    613.     31.    623.     31.    593.     30.
    601.     31.    565.     29.    623.     31.    647.     32.    620.     31.
    746.     35.    893.     38.   1242.     46.   1845.     57.   3000.     73.
   4485.     90.   6089.    106.   7030.    114.   7146.    115.   5931.    104.
   4157.     87.   2619.     68.   1417.     49.    999.     41.    757.     35.
    657.     32.    622.     31.    617.     31.    572.     30.    569.     30.
    606.     31.    531.     28.    591.     30.    547.     29.    584.     30.
    588.     30.    626.     31.    599.     31.    547.     29.    561.     29.
    534.     29.    527.     28.    552.     29.    478.     27.    533.     28.
    527.     28.    532.     28.    515.     28.    516.     28.    517.     28.
    537.     29.    568.     30.    517.     28.    503.     27.    538.     29.
    498.     27.    523.     28.    484.     27.    510.     28.    517.     28.
    514.     28.    548.     29.    527.     28.    485.     27.    516.     28.
    530.     28.    519.     28.    486.     27.    494.     27.    506.     28.
    528.     28.    553.     29.    559.     29.    495.     27.    458.     26.
    493.     27.    531.     28.    538.     28.    533.     28.    520.     27.
    541.     28.    557.     29.    564.     29.    566.     29.    614.     30.
    591.     29.    566.     29.    562.     29.    523.     27.    521.     27.
    482.     26.    459.     25.    492.     26.    483.     26.    488.     26.
    502.     27.    515.     27.    497.     27.    507.     27.    501.     27.
    462.     25.    504.     27.    512.     27.    505.     27.    502.     27.
    520.     27.    520.     27.    531.     28.    517.     27.    557.     28.
    565.     29.    672.     32.    687.     32.    745.     34.    749.     34.
    628.     31.    544.     28.    506.     27.    502.     27.    532.     28.
    524.     28.    506.     27.    538.     28.    539.     28.    536.     28.
    488.     26.    528.     28.    561.     29.    569.     29.    589.     29.
    622.     30.    586.     29.    570.     29.    506.     27.    498.     27.
    485.     26.    491.     26.    512.     27.    493.     26.    536.     28.
    504.     27.    493.     26.    478.     26.    509.     27.    505.     27.
    464.     26.    496.     27.    516.     27.    506.     27.    534.     28.
    473.     26.    508.     27.    530.     28.    530.     28.    547.     28.
    623.     30.    627.     31.    573.     29.    586.     29.    530.     28.
    525.     27.    482.     26.    507.     27.    495.     27.    476.     26.
    487.     26.    567.     29.    519.     27.    543.     28.    561.     29.
    640.     31.    728.     33.    976.     39.   1328.     46.   1863.     56.
   2646.     67.   3636.     62.   3827.     75.   3431.     71.   2700.     62.
   1788.     50.   1215.     41.    818.     33.    659.     29.    559.     27.
    508.     25.    535.     26.    529.     26.    532.     26.    555.     27.
    531.     26.    501.     25.    494.     25.    472.     24.    485.     25.
    492.     25.    514.     25.    519.     26.    554.     27.    531.     26.
    507.     25.    519.     26.    486.     25.    477.     24.    477.     24.
    479.     24.    515.     25.    488.     25.    484.     25.    515.     25.
    450.     23.    508.     25.    505.     25.    497.     25.    504.     25.
    515.     25.    484.     25.    487.     25.    486.     25.    474.     24.
    484.     25.    514.     25.    496.     25.    493.     25.    522.     26.
    500.     25.    527.     26.    467.     24.    503.     25.    507.     25.
    516.     25.    518.     26.    548.     26.    532.     26.    519.     26.
    502.     25.    500.     25.    511.     25.    525.     26.    523.     26.
    511.     25.    492.     25.    488.     25.    492.     25.    489.     25.
    456.     24.    466.     24.    463.     24.    478.     24.    510.     25.
    511.     25.    538.     26.    514.     25.    481.     24.    502.     25.
    478.     24.    457.     24.    479.     24.    518.     26.    539.     26.
    518.     26.    511.     25.    546.     26.    585.     27.    586.     27.
    553.     27.    530.     26.    557.     27.    558.     27.    581.     27.
    593.     28.    694.     30.    870.     34.   1177.     40.   1491.     46.
   1581.     47.   1391.     42.   1241.     39.    999.     35.    783.     31.
    632.     27.    538.     25.    562.     25.    518.     24.    507.     24.
    530.     25.    533.     25.    520.     24.    538.     25.    570.     26.
    550.     25.    515.     24.    479.     23.    500.     24.    497.     24.
    503.     24.    506.     24.    472.     23.    468.     23.    429.     22.
    458.     23.    459.     22.    474.     23.    500.     24.    515.     24.
    465.     23.    475.     23.    480.     23.    500.     24.    490.     23.
    510.     24.    530.     25.    524.     24.    508.     24.    527.     24.
    538.     25.    508.     24.    523.     24.    508.     24.    506.     24.
    571.     26.    583.     26.    577.     26.    601.     26.    717.     29.
    889.     33.   1154.     38.   1664.     46.   2323.     55.   2916.     61.
   3111.     64.   2810.     60.   2275.     54.   1616.     45.   1079.     36.
    779.     31.    666.     28.    589.     26.    523.     24.    482.     23.
    474.     23.    482.     23.    485.     23.    453.     22.    490.     23.
    475.     23.    477.     23.    473.     23.    463.     23.    463.     23.
    487.     23.    469.     23.    477.     23.    481.     23.    461.     23.
    476.     23.    473.     23.    477.     23.    450.     22.    468.     23.
    486.     23.    476.     23.    480.     23.    508.     24.    457.     22.
    431.     22.    453.     22.    465.     23.    453.     22.    475.     23.
    472.     23.    453.     22.    445.     22.    463.     23.    471.     23.
    449.     22.    508.     23.    504.     23.    497.     23.    535.     23.
    547.     24.    537.     24.    546.     24.    517.     23.    513.     23.
    480.     22.    484.     22.    476.     22.    523.     23.    517.     23.
    503.     23.    494.     22.    496.     22.    519.     23.    491.     22.
    490.     22.    498.     23.    511.     23.    531.     23.    507.     23.
    519.     23.    544.     24.    550.     24.    580.     25.    559.     24.
    589.     25.    624.     26.    716.     28.    788.     29.   1045.     34.
   1511.     41.   2373.     51.   4150.     69.   6838.     89.  10412.    110.
  13538.    126.  14476.    130.  13305.    124.  10466.    110.   6917.     89.
   4023.     68.   2241.     50.   1266.     37.    867.     31.    721.     28.
    666.     27.    640.     26.    627.     26.    582.     25.    603.     25.
    557.     24.    542.     24.    512.     23.    524.     23.    534.     23.
    507.     23.    495.     23.    475.     22.    451.     21.    477.     22.
    497.     23.    481.     22.    482.     22.    495.     22.    507.     23.
    496.     22.    509.     23.    549.     24.    558.     24.    547.     24.
    538.     24.    531.     23.    473.     22.    505.     23.    502.     23.
    492.     22.    488.     22.    496.     22.    485.     22.    506.     23.
    540.     24.    547.     24.    538.     24.    581.     25.    610.     25.
    627.     26.    608.     25.    555.     24.    510.     23.    477.     22.
    458.     22.    476.     22.    450.     21.    448.     21.    474.     22.
    478.     22.    485.     21.    441.     20.    483.     21.    542.     23.
    575.     23.    560.     23.    559.     23.    487.     21.    464.     21.
    473.     21.    491.     21.    467.     21.    447.     20.    448.     20.
    490.     21.    464.     21.    494.     21.    470.     21.    504.     22.
    487.     21.    453.     20.    472.     21.    442.     20.    488.     21.
    449.     20.    474.     21.    419.     20.    469.     21.    493.     21.
    471.     21.    502.     22.    487.     21.    493.     21.    523.     22.
    542.     23.    547.     23.    588.     24.    565.     23.    557.     23.
    527.     22.    487.     21.    483.     21.    480.     21.    440.     20.
    440.     20.    465.     21.    461.     21.    449.     20.    446.     20.
    450.     20.    418.     20.    415.     19.    475.     21.    484.     21.
    435.     20.    450.     20.    453.     20.    452.     20.    491.     21.
    472.     21.    491.     21.    486.     21.    505.     22.    559.     23.
    734.     27.    891.     30.   1038.     32.   1144.     34.   1124.     33.
    945.     30.    817.     28.    717.     26.    589.     24.    537.     22.
    520.     22.    472.     21.    449.     20.    452.     20.    459.     21.
    437.     20.    453.     20.    433.     20.    449.     20.    483.     21.
    471.     21.    490.     21.    450.     20.    452.     20.    457.     21.
    464.     21.    435.     20.    451.     20.    465.     21.    424.     20.
    442.     20.    433.     20.    441.     20.    456.     21.    494.     21.
    467.     21.    486.     21.    492.     21.    513.     21.    479.     20.
    476.     20.    479.     20.    505.     21.    538.     22.    544.     22.
    610.     23.    731.     26.    800.     27.    837.     28.    879.     29.
    855.     28.    720.     26.    690.     25.    654.     24.    593.     23.
    594.     23.    683.     25.    811.     27.   1100.     32.   1590.     39.
   2535.     49.   3821.     61.   5226.     71.   6007.     77.   6004.     77.
   5150.     71.   3872.     61.   2505.     49.   1522.     38.    979.     30.
    757.     26.    648.     24.    589.     23.    548.     22.    565.     22.
    560.     22.    524.     22.    544.     22.    497.     21.    460.     20.
    483.     21.    464.     20.    482.     21.    467.     20.    429.     19.
    460.     20.    452.     20.    450.     20.    408.     19.    461.     20.
    446.     20.    472.     20.    440.     20.    449.     20.    480.     21.
    476.     20.    472.     20.    503.     21.    505.     21.    496.     21.
    499.     21.    499.     21.    505.     21.    520.     21.    461.     20.
    439.     19.    431.     19.    488.     21.    441.     20.    468.     20.
    458.     20.    483.     21.    441.     20.    448.     20.    471.     20.
    412.     19.    501.     21.    478.     20.    505.     21.    491.     21.
    586.     23.    640.     24.    611.     23.    592.     23.    544.     22.
    503.     21.    485.     21.    456.     20.    423.     19.    427.     19.
    442.     20.    485.     21.    414.     19.    462.     20.    475.     20.
    445.     20.    436.     19.    473.     20.    458.     19.    453.     19.
    452.     19.    439.     19.    424.     19.    445.     19.    432.     19.
    422.     18.    452.     19.    462.     19.    473.     20.    492.     20.
    502.     20.    514.     21.    496.     20.    494.     20.    471.     20.
    473.     20.    472.     20.    498.     20.    521.     21.    595.     22.
    712.     25.    951.     29.   1209.     33.   1550.     37.   1751.     39.
   1753.     39.   1564.     37.   1269.     33.   1003.     30.    761.     25.
    620.     23.    532.     21.    473.     20.    495.     20.    446.     19.
    471.     20.    490.     20.    457.     19.    491.     20.    487.     20.
    503.     20.    504.     20.    482.     20.    450.     19.    440.     19.
    457.     19.    420.     18.    451.     19.    465.     20.    474.     20.
    433.     19.    450.     19.    476.     20.    461.     19.    429.     19.
    458.     19.    477.     20.    435.     19.    443.     19.    415.     18.
    438.     19.    447.     19.    460.     19.    439.     19.    483.     20.
    462.     19.    492.     20.    506.     20.    473.     20.    479.     20.
    453.     19.    435.     19.    435.     19.    437.     19.    447.     19.
    495.     20.    456.     19.    458.     19.    467.     20.    469.     20.
    433.     19.    439.     19.    433.     19.    426.     19.    446.     19.
    441.     19.    435.     19.    455.     19.    446.     19.    451.     19.
    445.     19.    497.     20.    482.     20.    525.     21.    561.     22.
    535.     21.    497.     28.    464.     19.    442.     18.    456.     19.
    441.     18.    475.     19.    469.     19.    466.     19.    460.     19.
    459.     19.    458.     19.    482.     19.    450.     19.    420.     18.
    418.     18.    443.     18.    441.     18.    411.     18.    415.     18.
    420.     18.    449.     19.    455.     19.    460.     19.    475.     19.
    488.     19.    482.     19.    480.     19.    474.     19.    457.     19.
    469.     19.    481.     19.    514.     20.    571.     21.    683.     23.
    870.     26.   1191.     31.   1593.     36.   2090.     41.   2569.     46.
   2667.     47.   2512.     45.   2178.     42.   1731.     37.   1217.     31.
    888.     27.    707.     24.    589.     21.    507.     20.    485.     19.
    468.     19.    434.     18.    445.     18.    446.     18.    437.     18.
    421.     18.    429.     18.    424.     18.    442.     18.    453.     19.
    443.     18.    439.     18.    433.     18.    432.     18.    440.     18.
    460.     19.    458.     19.    427.     18.    435.     18.    444.     18.
    409.     18.    409.     18.    432.     18.    416.     18.    439.     18.
    432.     18.    466.     19.    454.     19.    449.     19.    447.     19.
    467.     19.    464.     19.    438.     18.    440.     18.    428.     18.
    438.     18.    444.     18.    426.     18.    428.     18.    442.     18.
    468.     19.    457.     19.    446.     19.    437.     18.    439.     18.
    444.     18.    476.     19.    505.     20.    514.     20.    527.     20.
    564.     21.    706.     24.    971.     28.   1342.     33.   1795.     38.
   2448.     45.   2863.     49.   3011.     50.   2938.     49.   2483.     45.
   2002.     41.   1413.     34.   1044.     29.    768.     25.    650.     23.
    566.     21.    499.     20.    505.     20.    466.     19.    476.     19.
    457.     19.    460.     19.    450.     19.    451.     19.    416.     18.
    450.     19.    462.     19.    435.     18.    456.     19.    449.     19.
    429.     18.    461.     19.    496.     20.    498.     20.    471.     19.
    456.     19.    468.     19.    492.     20.    472.     19.    543.     21.
    614.     22.    744.     24.    983.     28.   1291.     32.   1779.     38.
   2263.     43.   2501.     45.   2669.     47.   2457.     45.   2113.     42.
   1621.     36.   1218.     31.    891.     27.    679.     23.    550.     21.
    511.     20.    488.     20.    485.     19.    515.     20.    545.     21.
    538.     21.    518.     20.    505.     20.    502.     20.    473.     19.
    433.     18.    432.     18.    461.     19.    447.     19.    453.     19.
    464.     19.    435.     18.    459.     19.    456.     19.    438.     18.
    452.     19.    451.     19.    422.     18.    467.     19.    432.     18.
    450.     19.    443.     19.    472.     19.    478.     19.    473.     19.
    480.     19.    520.     20.    514.     20.    485.     19.    478.     19.
    457.     19.    440.     18.    457.     19.    471.     19.    464.     19.
    437.     18.    454.     19.    458.     19.    434.     18.    486.     19.
    484.     19.    495.     16.    488.     19.    502.     20.    532.     20.
    621.     22.    755.     24.    984.     28.   1282.     32.   1640.     37.
   2050.     41.   2427.     45.   2624.     46.   2517.     45.   2310.     43.
   1872.     39.   1460.     34.   1058.     29.    774.     25.    633.     22.
    550.     21.    494.     20.    456.     19.    477.     19.    469.     19.
    479.     19.    448.     19.    470.     19.    435.     18.    423.     18.
    444.     19.    422.     18.    449.     19.    440.     18.    461.     19.
    461.     19.    456.     19.    488.     20.    478.     19.    470.     19.
    493.     20.    511.     20.    508.     20.    511.     20.    526.     20.
    552.     21.    560.     21.    661.     23.    757.     25.    855.     26.
    964.     28.    947.     28.    958.     28.    897.     27.    808.     25.
    742.     24.    714.     24.    751.     24.    901.     27.   1200.     31.
   1644.     37.   2133.     42.   2607.     46.   3006.     50.   3200.     51.
   3024.     50.   2591.     46.   2119.     42.   1619.     36.   1107.     30.
    852.     26.    649.     23.    578.     21.    521.     20.    522.     20.
    519.     20.    477.     19.    478.     19.    443.     19.    432.     18.
    470.     19.    434.     18.    435.     18.    436.     18.    429.     18.
    415.     18.    433.     18.    423.     18.    467.     19.    473.     19.
    485.     19.    460.     19.    442.     18.    457.     19.    427.     18.
    421.     18.    426.     18.    424.     18.    419.     18.    410.     18.
    418.     18.    423.     25.    437.     18.    430.     18.    448.     18.
    411.     17.    408.     17.    444.     18.    507.     19.    532.     20.
    619.     22.    722.     23.    839.     25.    953.     27.   1047.     28.
   1104.     29.   1073.     29.   1010.     28.    942.     27.    776.     24.
    603.     21.    557.     20.    500.     19.    481.     19.    488.     19.
    461.     19.    428.     18.    477.     19.    454.     18.    416.     18.
    397.     17.    434.     18.    410.     17.    434.     18.    443.     18.
    420.     18.    409.     17.    434.     18.    441.     18.    453.     18.
    463.     19.    409.     17.    423.     18.    419.     18.    457.     18.
    462.     19.    463.     19.    544.     20.    588.     21.    670.     22.
    854.     25.    937.     27.   1025.     28.   1089.     29.   1087.     29.
   1068.     29.    943.     27.    812.     25.    696.     23.    601.     21.
    525.     20.    473.     19.    472.     19.    457.     18.    474.     19.
    459.     18.    458.     18.    446.     18.    411.     17.    445.     18.
    450.     18.    426.     18.    419.     18.    422.     18.    467.     19.
    442.     18.    435.     18.    413.     17.    432.     18.    456.     18.
    411.     17.    439.     18.    464.     19.    427.     18.    419.     18.
    431.     18.    404.     17.    429.     18.    419.     18.    417.     18.
    423.     18.    448.     18.    393.     17.    413.     17.    438.     18.
    444.     18.    429.     18.    439.     18.    443.     18.    428.     18.
    438.     18.    452.     18.    462.     19.    463.     19.    470.     19.
    406.     17.    439.     18.    415.     18.    434.     18.    447.     18.
    469.     19.    530.     20.    562.     21.    647.     22.    738.     24.
    783.     25.    843.     25.    905.     26.    890.     26.    834.     25.
    736.     24.    680.     23.    600.     21.    521.     20.    491.     19.
    435.     18.    424.     18.    439.     18.    446.     18.    437.     18.
    420.     18.    408.     17.    408.     17.    404.     17.    424.     18.
    408.     17.    433.     18.    448.     18.    398.     17.    394.     17.
    421.     18.    445.     18.    458.     19.    396.     17.    457.     19.
    429.     18.    437.     18.    427.     18.    436.     18.    417.     18.
    411.     18.    426.     18.    441.     18.    453.     18.    495.     19.
    478.     19.    483.     19.    467.     19.    456.     19.    441.     18.
    385.     17.    396.     17.    409.     18.    398.     17.    408.     17.
    389.     17.    396.     17.    434.     18.    391.     17.    394.     17.
    399.     17.    396.     17.    431.     18.    442.     18.    417.     18.
    463.     19.    421.     18.    426.     18.    409.     18.    430.     18.
    408.     17.    419.     18.    428.     18.    422.     18.    419.     18.
    433.     18.    406.     17.    420.     18.    435.     18.    420.     18.
    440.     18.    429.     18.    414.     18.    400.     17.    417.     18.
    407.     17.    425.     18.    412.     18.    437.     18.    422.     18.
    420.     18.    439.     18.    472.     20.    464.     20.    434.     19.
    454.     19.    473.     20.    480.     20.    528.     21.    565.     22.
    636.     23.    696.     24.    915.     28.   1130.     31.   1625.     37.
   2135.     42.   2691.     48.   3139.     51.   3396.     53.   3568.     55.
   3522.     54.   3149.     51.   2770.     48.   2183.     43.   1721.     38.
   1288.     33.    958.     28.    776.     25.    630.     23.    540.     21.
    533.     21.    480.     20.    465.     20.    464.     20.    437.     19.
    461.     19.    440.     19.    409.     18.    395.     18.    432.     19.
    454.     19.    436.     19.    450.     19.    468.     20.    444.     19.
    443.     19.    461.     19.    446.     19.    471.     20.    503.     20.
    517.     21.    648.     23.    742.     25.    910.     28.   1091.     30.
   1235.     32.   1328.     33.   1386.     34.   1400.     34.   1348.     34.
   1234.     32.   1041.     29.    900.     27.    718.     24.    604.     22.
    523.     21.    469.     20.    484.     20.    436.     19.    404.     18.
    407.     18.    430.     19.    450.     19.    419.     19.    423.     19.
    419.     19.    405.     18.    413.     18.    425.     19.    407.     18.
    424.     19.    439.     19.    405.     18.    411.     18.    436.     19.
    410.     18.    396.     18.    407.     18.    406.     18.    385.     18.
    392.     18.    454.     19.    421.     19.    415.     18.    420.     19.
    402.     18.    397.     18.    392.     18.    409.     18.    404.     18.
    399.     18.    394.     18.    421.     19.    401.     19.    409.     19.
    414.     19.    428.     19.    446.     20.    444.     19.    401.     19.
    428.     19.    462.     20.    497.     21.    559.     22.    599.     23.
    673.     24.    816.     26.    973.     29.   1089.     31.   1290.     33.
   1331.     34.   1440.     35.   1411.     35.   1415.     35.   1227.     32.
   1104.     31.    951.     29.    830.     27.    698.     24.    614.     23.
    528.     21.    504.     21.    463.     20.    464.     20.    444.     19.
    426.     19.    440.     19.    462.     20.    440.     19.    442.     19.
    413.     19.    409.     19.    421.     19.    418.     19.    426.     19.
    463.     20.    419.     19.    453.     20.    503.     21.    512.     21.
    476.     20.    590.     22.    619.     23.    758.     25.    941.     28.
   1188.     32.   1399.     35.   1624.     37.   1757.     39.   1923.     41.
   1949.     41.   1976.     41.   1845.     40.   1815.     39.   1615.     37.
   1504.     36.   1477.     36.   1446.     35.   1748.     39.   1989.     41.
   2162.     43.   2400.     45.   2559.     47.   2616.     47.   2600.     47.
   2423.     46.   2177.     43.   1933.     41.   1499.     36.   1250.     33.
    969.     29.    801.     26.    670.     24.    558.     22.    493.     21.
    482.     20.    467.     20.    428.     19.    442.     19.    408.     19.
    414.     19.    405.     19.    409.     19.    423.     19.    414.     19.
    418.     19.    404.     19.    406.     19.    372.     18.    398.     18.
    417.     19.    374.     18.    422.     18.    400.     18.    412.     18.
    414.     18.    400.     18.    397.     18.    374.     17.    391.     18.
    394.     18.    398.     18.    390.     18.    405.     18.    408.     18.
    406.     18.    387.     18.    366.     17.    368.     17.    356.     17.
    363.     17.    388.     18.    392.     18.    387.     18.    379.     17.
    386.     18.    379.     17.    376.     17.    398.     18.    374.     17.
    394.     18.    367.     17.    390.     18.    410.     18.    361.     17.
    368.     17.    383.     17.    388.     18.    397.     18.    407.     18.
    390.     18.    391.     18.    371.     17.    402.     18.    371.     17.
    373.     17.    383.     17.    393.     18.    397.     18.    403.     18.
    369.     17.    392.     18.    380.     17.    388.     18.    396.     18.
    394.     18.    423.     18.    422.     18.    402.     18.    394.     18.
    431.     19.    419.     18.    422.     18.    438.     19.    450.     19.
    426.     18.    407.     18.    408.     18.    437.     19.    395.     18.
    411.     18.    420.     18.    420.     18.    427.     18.    423.     18.
    446.     19.    400.     18.    422.     18.    407.     18.    403.     18.
    467.     19.    417.     18.    416.     18.    418.     18.    384.     17.
    417.     18.    403.     18.    409.     18.    405.     18.    374.     17.
    379.     17.    418.     18.    386.     18.    379.     17.    414.     18.
    364.     17.    388.     18.    396.     18.    374.     17.    427.     18.
    387.     18.    407.     25.    384.     18.    371.     17.    388.     18.
    394.     18.    376.     17.    402.     18.    396.     18.    401.     18.
    386.     18.    400.     18.    385.     18.    399.     18.    407.     18.
    385.     18.    391.     18.    389.     18.    408.     18.    435.     19.
    432.     19.    416.     18.    438.     19.    485.     20.    512.     20.
    568.     21.    661.     23.    687.     23.    725.     24.    812.     26.
    793.     25.    819.     26.    799.     25.    825.     26.    788.     25.
    732.     24.    681.     23.    624.     22.    577.     22.    517.     20.
    480.     20.    465.     19.    419.     18.    408.     18.    402.     18.
    418.     18.    384.     18.    389.     18.    403.     18.    398.     18.
    384.     18.    382.     18.    395.     18.    368.     17.    381.     18.
    349.     17.    362.     17.    400.     18.    394.     18.    376.     17.
    382.     18.    395.     18.    356.     17.    420.     18.    460.     19.
    451.     19.    467.     19.    482.     20.    524.     21.    543.     21.
    550.     21.    577.     22.    570.     21.    543.     21.    539.     21.
    546.     21.    534.     21.    510.     20.    497.     20.    472.     20.
    448.     19.    417.     18.    390.     18.    401.     18.    374.     17.
    380.     18.    385.     18.    383.     18.    384.     18.    399.     18.
    387.     18.    356.     17.    374.     17.    381.     18.    386.     18.
    391.     18.    376.     17.    375.     17.    396.     18.    402.     18.
    388.     18.    361.     17.    361.     17.    350.     17.    367.     17.
    378.     18.    386.     18.    390.     18.    397.     18.    380.     18.
    373.     18.    357.     17.    392.     18.    362.     17.    363.     17.
    384.     18.    392.     18.    381.     18.    397.     18.    387.     18.
    410.     18.    389.     18.    400.     18.    389.     18.    402.     18.
    405.     18.    423.     19.    434.     19.    430.     19.    452.     19.
    486.     20.    497.     20.    517.     21.    573.     22.    672.     23.
    790.     25.    907.     27.    959.     28.   1016.     28.   1024.     29.
   1078.     29.   1114.     30.   1115.     30.   1117.     30.   1085.     29.
    981.     28.    892.     27.    800.     25.    697.     24.    608.     22.
    564.     21.    530.     21.    483.     20.    437.     19.    442.     19.
    442.     19.    432.     19.    406.     18.    401.     18.    373.     18.
    367.     17.    388.     18.    388.     18.    412.     18.    391.     18.
    377.     18.    385.     18.    399.     18.    396.     18.    400.     18.
    397.     18.    411.     18.    472.     20.    503.     20.    519.     21.
    549.     21.    628.     23.    690.     24.    776.     25.    825.     26.
    902.     27.    923.     27.    936.     27.    995.     28.    977.     28.
    946.     27.    954.     28.    911.     27.    889.     27.    826.     26.
    740.     24.    669.     23.    578.     22.    511.     20.    488.     20.
    475.     20.    449.     19.    413.     18.    402.     18.    396.     18.
    419.     19.    394.     18.    405.     19.    427.     19.    373.     18.
    382.     18.    393.     19.    380.     18.    376.     18.    415.     19.
    409.     19.    367.     18.    406.     19.    372.     18.    376.     18.
    355.     18.    388.     19.    373.     18.    385.     18.    388.     19.
    375.     18.    373.     18.    381.     18.    384.     18.    400.     19.
    409.     19.    406.     19.    391.     19.    419.     19.    418.     19.
    399.     19.    390.     19.    398.     19.    422.     19.    389.     19.
    397.     19.    404.     19.    414.     19.    390.     19.    421.     19.
    412.     19.    418.     19.    452.     20.    468.     20.    474.     20.
    557.     22.    610.     23.    698.     24.    866.     27.    996.     29.
   1073.     30.   1181.     32.   1326.     33.   1295.     33.   1355.     34.
   1316.     33.   1408.     34.   1432.     35.   1413.     35.   1359.     34.
   1307.     33.   1221.     32.   1054.     30.   1021.     29.    828.     27.
    759.     26.    661.     24.    622.     23.    546.     22.    500.     21.
    478.     20.    466.     20.    437.     20.    446.     20.    434.     20.
    413.     19.    417.     19.    417.     19.    420.     19.    427.     19.
    406.     19.    423.     19.    413.     19.    425.     19.    462.     20.
    457.     20.    450.     20.    458.     20.    454.     20.    532.     22.
    556.     22.    625.     23.    689.     24.    766.     26.    765.     26.
    878.     27.    931.     28.   1031.     30.   1040.     30.   1078.     30.
   1147.     31.   1155.     25.   1178.     32.   1213.     33.   1308.     34.
   1433.     36.   1505.     36.   1643.     38.   1793.     40.   1959.     42.
   2078.     43.   2220.     44.   2320.     45.   2366.     46.   2381.     46.
   2396.     46.   2470.     47.   2507.     47.   2484.     47.   2341.     45.
   2283.     45.   2110.     43.   1904.     41.   1688.     39.   1443.     36.
   1200.     33.   1069.     31.    910.     29.    751.     26.    676.     25.
    605.     23.    543.     22.    496.     21.    468.     21.    469.     21.
    444.     20.    424.     20.    432.     20.    398.     19.    428.     20.
    433.     20.    406.     19.    408.     20.    370.     19.    414.     20.
    400.     19.    398.     19.    381.     19.    372.     19.    425.     20.
    419.     20.    377.     19.    399.     19.    393.     19.    392.     19.
    398.     19.    404.     19.    405.     19.    432.     20.    401.     19.
    419.     20.    439.     20.    431.     20.    421.     20.    483.     21.
    564.     23.    602.     23.    661.     24.    782.     27.    910.     29.
   1010.     30.   1162.     32.   1369.     35.   1382.     35.   1485.     36.
   1556.     37.   1551.     37.   1557.     37.   1577.     37.   1648.     38.
   1625.     38.   1594.     38.   1522.     37.   1484.     36.   1365.     35.
   1261.     33.   1068.     31.   1018.     30.    870.     28.    791.     27.
    656.     24.    615.     24.    584.     23.    546.     22.    530.     22.
    502.     22.    416.     20.    387.     19.    404.     19.    406.     19.
    432.     20.    378.     19.    407.     19.    395.     19.    430.     19.
    392.     19.    379.     18.    390.     19.    376.     18.    391.     19.
    390.     19.    389.     19.    435.     20.    411.     19.    415.     19.
    489.     21.    491.     21.    555.     22.    524.     21.    581.     22.
    591.     23.    622.     23.    592.     23.    604.     23.    657.     24.
    645.     23.    665.     24.    671.     24.    718.     25.    668.     24.
    656.     24.    661.     24.    636.     23.    606.     23.    604.     23.
    574.     22.    555.     22.    525.     21.    479.     20.    443.     20.
    408.     19.    402.     19.    416.     19.    398.     19.    394.     19.
    405.     19.    392.     19.    414.     19.    414.     19.    394.     19.
    412.     19.    392.     19.    362.     18.    394.     19.    381.     18.
    390.     19.    370.     18.    371.     18.    351.     18.    387.     19.
    389.     19.    388.     19.    382.     18.    367.     18.    388.     19.
    379.     18.    370.     18.    386.     19.    396.     19.    364.     18.
    398.     19.    397.     19.    392.     19.    380.     18.    353.     18.
    372.     18.    391.     19.    388.     19.    357.     18.    383.     18.
    379.     18.    390.     19.    403.     19.    413.     19.    404.     19.
    397.     19.    431.     19.    426.     19.    434.     20.    386.     19.
    437.     20.    470.     20.    470.     20.    446.     20.    465.     20.
    515.     21.    583.     22.    625.     23.    773.     26.    833.     27.
    981.     29.   1121.     43.   1284.     32.   1368.     33.   1510.     35.
   1547.     35.   1669.     37.   1736.     37.   1779.     38.   1748.     37.
   1795.     38.   1848.     39.   1812.     38.   1867.     39.   1817.     38.
   1766.     38.   1675.     37.   1648.     36.   1555.     35.   1425.     34.
   1313.     33.   1130.     30.   1006.     29.    948.     28.    848.     26.
    733.     25.    667.     24.    589.     22.    571.     22.    528.     21.
    491.     20.    485.     20.    463.     20.    428.     19.    425.     19.
    427.     19.    442.     19.    429.     19.    402.     19.    409.     19.
    382.     18.    386.     18.    419.     19.    413.     19.    375.     18.
    397.     18.    402.     19.    395.     18.    396.     19.    392.     18.
    408.     19.    393.     18.    381.     18.    392.     18.    404.     19.
    431.     19.    430.     19.    419.     19.    404.     19.    381.     18.
    431.     19.    416.     19.    422.     19.    413.     19.    414.     19.
    415.     19.    407.     19.    395.     18.    407.     19.    398.     19.
    423.     19.    378.     18.    390.     18.    404.     19.    383.     18.
    418.     19.    405.     19.    395.     18.    392.     18.    366.     18.
    363.     18.    380.     18.    396.     18.    396.     18.    383.     18.
    393.     18.    402.     19.    409.     19.    384.     18.    372.     18.
    354.     18.    401.     19.    381.     18.    397.     18.    392.     18.
    380.     18.    378.     18.    349.     17.    382.     18.    393.     18.
    354.     18.    369.     15.    390.     19.    403.     19.    382.     18.
    384.     18.    384.     18.    376.     18.    384.     18.    400.     19.
    393.     19.    392.     19.    400.     19.    419.     19.    417.     19.
    413.     19.    408.     19.    430.     19.    413.     19.    400.     19.
    387.     19.    399.     19.    404.     19.    393.     19.    401.     19.
    417.     19.    400.     19.    411.     19.    415.     19.    434.     19.
    432.     19.    431.     19.    440.     20.    428.     19.    442.     20.
    443.     20.    448.     20.    435.     19.    462.     20.    490.     21.
    499.     21.    541.     21.    612.     23.    665.     24.    730.     25.
    837.     26.    942.     28.   1022.     29.   1135.     30.   1250.     32.
   1373.     33.   1429.     34.   1505.     35.   1600.     36.   1654.     36.
   1677.     37.   1638.     36.   1733.     37.   1819.     38.   1775.     38.
   1766.     38.   1837.     38.   1803.     38.   1750.     37.   1772.     38.
   1727.     37.   1702.     37.   1663.     37.   1590.     36.   1486.     35.
   1400.     34.   1252.     32.   1152.     31.   1121.     30.   1023.     29.
    921.     28.    821.     26.    785.     26.    721.     25.    639.     23.
    613.     23.    581.     22.    579.     22.    512.     21.    511.     21.
    477.     20.    457.     20.    433.     19.    422.     19.    435.     19.
    451.     20.    419.     19.    395.     19.    403.     19.    432.     19.
    417.     19.    432.     19.    455.     20.    425.     19.    436.     19.
    402.     19.    402.     19.    407.     19.    435.     20.    392.     19.
    399.     19.    391.     19.    428.     20.    470.     21.    442.     20.
    435.     20.    443.     20.    453.     20.    434.     20.    454.     20.
    424.     20.    441.     20.    423.     20.    416.     20.    426.     20.
    452.     20.    467.     21.    455.     20.    420.     20.    430.     20.
    409.     19.    423.     20.    457.     20.    444.     20.    458.     20.
    459.     20.    434.     20.    442.     20.    466.     21.    434.     20.
    442.     20.    440.     20.    418.     20.    429.     20.    440.     20.
    456.     20.    432.     20.    430.     20.    437.     20.    442.     20.
    396.     19.    396.     19.    418.     20.    420.     20.    404.     19.
    396.     19.    442.     20.    447.     20.    425.     20.    428.     20.
    429.     20.    448.     20.    421.     20.    417.     20.    407.     19.
    402.     19.    398.     19.    420.     20.    419.     20.    403.     19.
    423.     20.    400.     19.    414.     20.    419.     20.    408.     19.
    423.     20.    421.     20.    394.     19.    418.     20.    418.     20.
    419.     20.    444.     20.    416.     20.    400.     19.    430.     20.
    430.     20.    411.     19.    435.     20.    412.     19.    397.     19.
    393.     19.    386.     19.    408.     19.    418.     20.    414.     20.
    398.     19.    403.     19.    404.     19.    401.     19.    401.     19.
    447.     20.    436.     20.    432.     20.    414.     20.    400.     19.
    420.     20.    438.     20.    421.     20.    432.     20.    431.     20.
    421.     20.    394.     20.    417.     20.    415.     20.    415.     20.
    441.     20.    440.     20.    403.     20.    434.     20.    440.     20.
    416.     20.    434.     20.    440.     20.    434.     20.    434.     20.
    453.     21.    433.     20.    434.     20.    437.     20.    425.     20.
    442.     20.    465.     21.    476.     21.    457.     21.    443.     20.
    428.     20.    444.     21.    453.     21.    455.     21.    452.     21.
    433.     20.    427.     20.    445.     21.    438.     20.    433.     20.
    455.     21.    468.     21.    441.     20.    452.     21.    455.     21.
    459.     21.    453.     21.    448.     21.    442.     20.    473.     21.
    436.     20.    446.     21.    432.     20.    454.     21.    497.     22.
    467.     21.    443.     20.    451.     21.    465.     21.    457.     21.
    479.     21.    456.     21.    431.     20.    443.     20.    474.     21.
    473.     21.    465.     21.    437.     20.    442.     21.    445.     21.
    461.     21.    455.     21.    423.     20.    421.     20.    439.     20.
    429.     20.    448.     21.    435.     20.    425.     20.    444.     21.
    476.     21.    464.     21.    465.     21.    475.     21.    458.     21.
    455.     21.    466.     21.    476.     21.    481.     21.    476.     21.
    491.     21.    496.     21.    524.     22.    512.     22.    523.     22.
    566.     23.    553.     23.    575.     23.    594.     23.    596.     23.
    618.     24.    679.     20.    665.     25.    678.     25.    674.     25.
    678.     25.    696.     25.    674.     25.    688.     25.    707.     26.
    709.     26.    732.     26.    736.     26.    736.     26.    746.     26.
    768.     27.    806.     27.    834.     27.    808.     27.    833.     27.
    874.     28.    879.     28.    873.     28.    872.     28.    923.     29.
    969.     29.    999.     30.   1025.     30.   1020.     30.   1076.     31.
   1117.     31.   1108.     31.   1095.     31.   1140.     32.   1178.     32.
   1126.     31.   1127.     31.   1139.     32.   1161.     32.   1160.     32.
   1114.     31.   1120.     31.   1169.     32.   1152.     32.   1134.     32.
   1150.     32.   1109.     31.   1113.     31.   1130.     31.   1121.     31.
   1098.     31.   1096.     31.   1106.     31.   1110.     31.   1064.     31.
   1033.     30.   1047.     30.   1047.     30.   1018.     30.    981.     30.
    977.     29.    950.     29.    919.     29.    937.     29.    963.     29.
    940.     29.    892.     28.    837.     28.    819.     27.    833.     27.
    787.     27.    739.     26.    720.     26.    713.     26.    683.     25.
    659.     25.    650.     25.    628.     24.    604.     24.    590.     24.
    593.     24.    599.     24.    596.     24.    546.     23.    566.     23.
    573.     23.    569.     23.    553.     23.    550.     23.    542.     23.
    531.     23.    542.     23.    537.     23.    532.     23.    533.     23.
    518.     23.    508.     22.    520.     23.    554.     23.    548.     23.
    552.     23.    557.     25.    539.     25.    540.     25.    537.     25.
    539.     25.    534.     25.    536.     25.    562.     25.    557.     25.
    535.     25.    554.     25.    543.     25.    574.     25.    532.     25.
    525.     24.    546.     25.    576.     25.    554.     25.    550.     25.
    550.     25.    572.     25.    557.     25.    557.     25.    593.     26.
    595.     26.    597.     26.    561.     25.    566.     25.    568.     25.
    569.     25.    605.     26.    582.     25.    572.     25.    617.     26.
    602.     26.    596.     26.    623.     26.    625.     26.    617.     26.
    606.     26.    614.     26.    645.     26.    642.     26.    607.     26.
    652.     26.    638.     26.    675.     27.    669.     27.    683.     27.
    671.     27.    698.     27.    734.     28.    743.     28.    731.     28.
    794.     29.    800.     29.    807.     29.    829.     29.    834.     29.
    845.     29.    853.     29.    900.     30.    920.     30.    878.     30.
    899.     30.    962.     31.    949.     31.    934.     30.    952.     31.
    963.     31.    945.     31.    974.     31.   1014.     31.    988.     31.
    997.     31.   1047.     32.   1034.     32.   1043.     32.   1051.     32.
   1072.     32.   1063.     32.   1033.     32.   1068.     32.   1102.     33.
   1103.     33.   1102.     33.   1098.     33.   1116.     33.   1111.     33.
   1092.     32.   1114.     33.   1104.     33.   1079.     32.   1119.     33.
   1090.     32.   1120.     33.   1098.     33.   1114.     33.   1103.     33.
   1088.     32.   1085.     48.   1035.     47.   1098.     48.   1125.     48.
   1100.     48.   1073.     48.   1051.     47.   1076.     48.   1084.     48.
   1006.     46.   1056.     47.   1008.     46.    972.     46.    905.     45.
    934.     45.    896.     44.    975.     46.    937.     45.    883.     44.
    988.     46.    906.     45.    859.     44.    928.     45.    956.     46.
    860.     44.    855.     44.    894.     44.    902.     45.    939.     45.
    876.     44.    882.     44.    836.     43.    843.     44.    916.     45.
    941.     45.    910.     45.    864.     44.    839.     43.    795.     43.
    857.     44.    867.     44.    817.     43.    854.     44.    871.     44.
    853.     44.    933.     45.    874.     44.    802.     43.    798.     43.
    903.     45.    891.     44.    896.     44.    906.     45.    984.     46.
    938.     45.    895.     44.    866.     44.    853.     44.    948.     45.
    898.     45.    885.     44.    928.     45.    969.     46.    926.     45.
    955.     46.   1022.     47.    961.     46.   1002.     46.   1022.     47.
   1019.     47.   1008.     46.    944.     45.   1042.     47.   1044.     47.
   1118.     48.   1085.     48.   1090.     48.   1128.     48.   1097.     48.
   1106.     48.   1139.     49.   1163.     49.   1204.     50.   1198.     50.
   1229.     50.   1213.     50.   1200.     50.   1293.     51.   1271.     51.
   1283.     51.   1379.     52.   1464.     54.   1512.     54.   1514.     54.
   1523.     54.   1477.     54.   1525.     55.   1518.     54.   1545.     55.
   1566.     55.      0.      0.      0.      0.      0.      0.      0.      0.
